Vel[m/s],Pot[kW]
3.5,42.2
4,93.3
4.5,145.2
5,211.3
5.5,284.2
6,390.9
6.5,491.5
7,601.1
7.5,731.8
8,884.5
8.5,1087.6
9,1247.1
9.5,1429.6
10,1594.3
10.5,1742.9
11,1861.2
11.5,1948.1
12,1993.3
12.5,2000
13,2000
13.5,2000
14,2000
14.5,2000
15,2000
15.5,2000
16,2000
16.5,2000
